#density    m*/m
0.01  0.941659093559571
0.02  0.918715722661013
0.03  0.900016265899368
0.04  0.882635210084673
0.05  0.865658007845157
0.06  0.848993862611693
0.07  0.832672155743541
0.08  0.816638000661883
0.09  0.800952342637818
0.1  0.785723186628661
0.11  0.770969045892745
0.12  0.756596721703244
0.13  0.742701512975577
0.14  0.729273843820415
0.15  0.716368491930721
0.16  0.703980618538689
0.17  0.692140844159969
0.18  0.680696461605238
0.19  0.669800882229448
0.2  0.659353548839812
0.21  0.649481828267415
