#density    m*/m
0.01  0.940513778202366
0.02  0.91505271550739
0.03  0.89330321950216
0.04  0.872701178648615
0.05  0.852539768776883
0.06  0.832801013137732
0.07  0.813773606289279
0.08  0.795341550394248
0.09  0.777682293802236
0.1  0.760936021086571
0.11  0.74520907969852
0.12  0.730490551248226
0.13  0.716809779228156
0.14  0.704211223214295
0.15  0.692803976129863
0.16  0.682684490909026
0.17  0.673742132529478
0.18  0.666179574468443
0.19  0.659837655054966
0.2  0.654653991109008
0.21  0.650852771262125
