#density    m*/m
0.02  0.919089626644413
0.03  0.900565985996187
0.04  0.883202439766457
0.05  0.866446433790642
0.06  0.850007263365079
0.07  0.8339959733639
0.08  0.818490603344272
0.09  0.80360675478766
0.1  0.789227383731412
0.11  0.775605666270941
0.12  0.76275991753085
0.13  0.75073234125253
0.14  0.739673529244601
0.15  0.729424826799136
0.16  0.71993378487503
0.17  0.71168607046729
0.18  0.70437037138307
0.19  0.698004427251542
0.2  0.692646247335584
0.21  0.688458712528423
