#density    m*/m
0.01  0.941658573706358
0.02  0.91871965241771
0.03  0.900037763095295
0.04  0.882710511112374
0.05  0.865845009926554
0.06  0.849388873699158
0.07  0.833390352749655
0.08  0.817818071031602
0.09  0.802901212567568
0.1  0.788513678401933
0.11  0.774938164669975
0.12  0.762091156545296
0.13  0.750043904255253
0.14  0.738965280709813
0.15  0.728707038594178
0.16  0.719206642186421
0.17  0.710929086703033
0.18  0.703584688317493
0.19  0.697206210592919
0.2  0.691835868928519
0.21  0.687616681734273
