#density    m*/m
0.01  0.939860720702185
0.02  0.915554682961034
0.03  0.895750129270278
0.04  0.877411162397985
0.05  0.85971435681593
0.06  0.842600756027161
0.07  0.825939891361166
0.08  0.809834845014679
0.09  0.794456848007645
0.1  0.779562367372769
0.11  0.765537482808856
0.12  0.752280857359843
0.13  0.739859599030595
0.14  0.728410228558081
0.15  0.717777825741045
0.16  0.707907851139609
0.17  0.699263291110066
0.18  0.691513173746532
0.19  0.684720832776836
0.2  0.678923153314312
0.21  0.674229948015007
