#density    m*/m
0.01  0.864500350614868
0.02  0.805910860205337
0.03  0.766633701208817
0.04  0.736600883031905
0.05  0.711964304107878
0.06  0.69104603594149
0.07  0.672866518581762
0.08  0.656763379762646
0.09  0.642346692085406
0.1  0.629367592185924
0.11  0.617613399215702
0.12  0.606850842223447
0.13  0.597064640962172
0.14  0.588069446025744
0.15  0.579814989303445
0.16  0.572254601431958
0.17  0.565342467896817
0.18  0.55904689821465
0.19  0.553273241827366
0.2  0.54813773158337
0.21  0.543432030044856
